x             rho           u             mdot          tau           T             O2            NO            NO2           N2            O             sumfracs      
5.132424e-010  3.267356e-001  1.000000e-001  3.267356e-002  5.132424e-009  1.073150e+003  1.965805e-009  3.687428e-009  9.999999e-002  9.000000e-001  3.501724e-013  1.000000e+000  
1.568293e-006  3.267394e-001  9.999882e-002  3.267356e-002  1.568311e-005  1.073131e+003  6.005733e-006  1.126331e-005  9.998273e-002  9.000000e-001  1.308109e-011  1.000000e+000  
1.236114e-005  3.267660e-001  9.999069e-002  3.267356e-002  1.236216e-004  1.073004e+003  4.718575e-005  8.849444e-005  9.986432e-002  9.000000e-001  1.302392e-011  1.000000e+000  
2.315398e-005  3.267924e-001  9.998259e-002  3.267356e-002  2.315686e-004  1.072877e+003  8.821565e-005  1.654440e-004  9.974634e-002  9.000000e-001  1.297709e-011  1.000000e+000  
7.867676e-005  3.269270e-001  9.994144e-002  3.267356e-002  7.870452e-004  1.072232e+003  2.966970e-004  5.564407e-004  9.914686e-002  9.000000e-001  1.274213e-011  1.000000e+000  
1.341995e-004  3.270596e-001  9.990092e-002  3.267356e-002  1.342719e-003  1.071597e+003  5.017982e-004  9.410980e-004  9.855710e-002  9.000000e-001  1.251524e-011  1.000000e+000  
1.897223e-004  3.271901e-001  9.986108e-002  3.267356e-002  1.898610e-003  1.070973e+003  7.033354e-004  1.319071e-003  9.797759e-002  9.000000e-001  1.229561e-011  1.000000e+000  
2.452451e-004  3.273185e-001  9.982191e-002  3.267356e-002  2.454719e-003  1.070360e+003  9.013229e-004  1.690387e-003  9.740829e-002  9.000000e-001  1.208350e-011  1.000000e+000  
4.254634e-004  3.277216e-001  9.969914e-002  3.267356e-002  4.261216e-003  1.068441e+003  1.521102e-003  2.852753e-003  9.562614e-002  9.000000e-001  1.144222e-011  1.000000e+000  
6.056816e-004  3.281048e-001  9.958268e-002  3.267356e-002  6.069872e-003  1.066623e+003  2.107777e-003  3.953034e-003  9.393919e-002  9.000000e-001  1.086533e-011  1.000000e+000  
7.858999e-004  3.284698e-001  9.947203e-002  3.267356e-002  7.880629e-003  1.064899e+003  2.664123e-003  4.996433e-003  9.233944e-002  9.000000e-001  1.034314e-011  1.000000e+000  
9.535194e-004  3.287939e-001  9.937398e-002  3.267356e-002  9.566570e-003  1.063374e+003  3.156171e-003  5.919246e-003  9.092458e-002  9.000000e-001  9.903402e-012  1.000000e+000  
1.121139e-003  3.291044e-001  9.928023e-002  3.267356e-002  1.125414e-002  1.061918e+003  3.625918e-003  6.800234e-003  8.957385e-002  9.000000e-001  9.499941e-012  1.000000e+000  
1.288758e-003  3.294024e-001  9.919041e-002  3.267356e-002  1.294326e-002  1.060524e+003  4.075254e-003  7.642942e-003  8.828180e-002  9.000000e-001  9.128170e-012  1.000000e+000  
1.456378e-003  3.296889e-001  9.910422e-002  3.267356e-002  1.463387e-002  1.059189e+003  4.505763e-003  8.450341e-003  8.704390e-002  9.000000e-001  8.785830e-012  1.000000e+000  
1.725298e-003  3.301263e-001  9.897291e-002  3.267356e-002  1.734919e-002  1.057157e+003  5.160422e-003  9.678121e-003  8.516146e-002  9.000000e-001  8.289098e-012  1.000000e+000  
1.994219e-003  3.305388e-001  9.884939e-002  3.267356e-002  2.006801e-002  1.055250e+003  5.774903e-003  1.083055e-002  8.339454e-002  9.000000e-001  7.847471e-012  1.000000e+000  
2.263139e-003  3.309288e-001  9.873288e-002  3.267356e-002  2.279013e-002  1.053454e+003  6.353361e-003  1.191542e-002  8.173122e-002  9.000000e-001  7.453451e-012  1.000000e+000  
2.532059e-003  3.312985e-001  9.862270e-002  3.267356e-002  2.551538e-002  1.051758e+003  6.899309e-003  1.293932e-002  8.016137e-002  9.000000e-001  7.099951e-012  1.000000e+000  
2.986155e-003  3.318816e-001  9.844945e-002  3.267356e-002  3.012386e-002  1.049097e+003  7.755813e-003  1.454565e-002  7.769853e-002  9.000000e-001  6.577091e-012  1.000000e+000  
3.440251e-003  3.324190e-001  9.829028e-002  3.267356e-002  3.474015e-002  1.046658e+003  8.540481e-003  1.601726e-002  7.544226e-002  9.000000e-001  6.129303e-012  1.000000e+000  
3.894347e-003  3.329167e-001  9.814334e-002  3.267356e-002  3.936366e-002  1.044411e+003  9.263051e-003  1.737240e-002  7.336454e-002  9.000000e-001  5.747506e-012  1.000000e+000  
4.348443e-003  3.333796e-001  9.800707e-002  3.267356e-002  4.399384e-002  1.042331e+003  9.931558e-003  1.862616e-002  7.144229e-002  9.000000e-001  5.422070e-012  1.000000e+000  
4.802539e-003  3.338118e-001  9.788018e-002  3.267356e-002  4.863021e-002  1.040398e+003  1.055270e-002  1.979108e-002  6.965621e-002  9.000000e-001  5.131717e-012  1.000000e+000  
5.256635e-003  3.342167e-001  9.776159e-002  3.267356e-002  5.327238e-002  1.038595e+003  1.113205e-002  2.087762e-002  6.799033e-002  9.000000e-001  4.863038e-012  1.000000e+000  
5.710731e-003  3.345973e-001  9.765039e-002  3.267356e-002  5.791998e-002  1.036906e+003  1.167424e-002  2.189447e-002  6.643129e-002  9.000000e-001  4.633181e-012  1.000000e+000  
6.575919e-003  3.352637e-001  9.745628e-002  3.267356e-002  6.678901e-002  1.033965e+003  1.261829e-002  2.366500e-002  6.371671e-002  9.000000e-001  4.298685e-012  1.000000e+000  
7.441107e-003  3.358644e-001  9.728198e-002  3.267356e-002  7.567476e-002  1.031331e+003  1.346348e-002  2.525010e-002  6.128643e-002  9.000000e-001  4.012112e-012  1.000000e+000  
8.306294e-003  3.364095e-001  9.712436e-002  3.267356e-002  8.457581e-002  1.028954e+003  1.422581e-002  2.667982e-002  5.909437e-002  9.000000e-001  3.816380e-012  1.000000e+000  
9.171482e-003  3.369071e-001  9.698092e-002  3.267356e-002  9.349081e-002  1.026795e+003  1.491794e-002  2.797788e-002  5.710418e-002  9.000000e-001  3.826345e-012  1.000000e+000  
1.003667e-002  3.373643e-001  9.684947e-002  3.267356e-002  1.024183e-001  1.024820e+003  1.555073e-002  2.916465e-002  5.528462e-002  9.000000e-001  3.677755e-012  1.000000e+000  
1.090186e-002  3.377871e-001  9.672826e-002  3.267356e-002  1.113572e-001  1.023003e+003  1.613293e-002  3.025653e-002  5.361054e-002  9.000000e-001  2.648790e-012  1.000000e+000  
1.176704e-002  3.381794e-001  9.661606e-002  3.267356e-002  1.203068e-001  1.021323e+003  1.667084e-002  3.126536e-002  5.206380e-002  9.000000e-001  1.565702e-012  1.000000e+000  
1.320607e-002  3.387737e-001  9.644654e-002  3.267356e-002  1.352140e-001  1.018790e+003  1.748165e-002  3.278599e-002  4.973235e-002  9.000000e-001  5.218070e-012  1.000000e+000  
1.426006e-002  3.391690e-001  9.633413e-002  3.267356e-002  1.461486e-001  1.017113e+003  1.801818e-002  3.379222e-002  4.818961e-002  9.000000e-001  9.193351e-012  1.000000e+000  
1.531406e-002  3.395352e-001  9.623026e-002  3.267356e-002  1.570957e-001  1.015565e+003  1.851318e-002  3.472057e-002  4.676626e-002  9.000000e-001  6.057838e-012  1.000000e+000  
1.636805e-002  3.398760e-001  9.613376e-002  3.267356e-002  1.680541e-001  1.014130e+003  1.897224e-002  3.558151e-002  4.544625e-002  9.000000e-001  4.161091e-011  1.000000e+000  
1.742205e-002  3.401946e-001  9.604373e-002  3.267356e-002  1.790231e-001  1.012792e+003  1.939979e-002  3.638338e-002  4.421684e-002  9.000000e-001  2.285775e-011  1.000000e+000  
1.847604e-002  3.404929e-001  9.595959e-002  3.267356e-002  1.900019e-001  1.011544e+003  1.979901e-002  3.713209e-002  4.306891e-002  9.000000e-001  1.401913e-010  1.000000e+000  
1.953004e-002  3.407726e-001  9.588082e-002  3.267356e-002  2.009903e-001  1.010375e+003  2.017258e-002  3.783267e-002  4.199472e-002  9.000000e-001  2.719683e-010  1.000000e+000  
2.058403e-002  3.410361e-001  9.580674e-002  3.267356e-002  2.119875e-001  1.009278e+003  2.052338e-002  3.849057e-002  4.098600e-002  9.000000e-001  1.948582e-010  1.000000e+000  
2.163803e-002  3.412862e-001  9.573652e-002  3.267356e-002  2.229928e-001  1.008240e+003  2.085418e-002  3.911104e-002  4.003484e-002  9.000000e-001  1.335881e-009  1.000000e+000  
2.269202e-002  3.415241e-001  9.566985e-002  3.267356e-002  2.340058e-001  1.007256e+003  2.116685e-002  3.969754e-002  3.913588e-002  9.000000e-001  1.071264e-009  1.000000e+000  
2.374602e-002  3.417466e-001  9.560756e-002  3.267356e-002  2.450264e-001  1.006335e+003  2.146200e-002  4.025102e-002  3.828711e-002  9.000000e-001  3.819583e-009  1.000000e+000  
2.480001e-002  3.419524e-001  9.555000e-002  3.267356e-002  2.560540e-001  1.005479e+003  2.174053e-002  4.077303e-002  3.748588e-002  9.000000e-001  5.925523e-009  9.999994e-001  
2.585401e-002  3.421540e-001  9.549371e-002  3.267356e-002  2.670882e-001  1.004648e+003  2.200606e-002  4.127098e-002  3.672236e-002  9.000000e-001  8.952674e-009  9.999994e-001  
2.650269e-002  3.422780e-001  9.545911e-002  3.267356e-002  2.738824e-001  1.004143e+003  2.216388e-002  4.156721e-002  3.626878e-002  9.000000e-001  3.372857e-012  9.999999e-001  
2.695576e-002  3.423599e-001  9.543630e-002  3.267356e-002  2.786292e-001  1.003807e+003  2.227081e-002  4.176777e-002  3.596132e-002  9.000000e-001  6.264195e-012  9.999999e-001  
2.740884e-002  3.424391e-001  9.541420e-002  3.267356e-002  2.833772e-001  1.003481e+003  2.237539e-002  4.196388e-002  3.566055e-002  9.000000e-001  1.243877e-009  9.999998e-001  
2.786191e-002  3.425174e-001  9.539241e-002  3.267356e-002  2.881262e-001  1.003160e+003  2.247795e-002  4.215620e-002  3.536565e-002  9.000000e-001  4.213206e-011  9.999998e-001  
2.831498e-002  3.425947e-001  9.537088e-002  3.267356e-002  2.928763e-001  1.002843e+003  2.257858e-002  4.234494e-002  3.507631e-002  9.000000e-001  1.288974e-009  9.999998e-001  
2.876805e-002  3.426705e-001  9.534976e-002  3.267356e-002  2.976275e-001  1.002533e+003  2.267722e-002  4.252996e-002  3.479267e-002  9.000000e-001  7.435773e-010  9.999999e-001  
2.922113e-002  3.427444e-001  9.532921e-002  3.267356e-002  3.023797e-001  1.002230e+003  2.277377e-002  4.271104e-002  3.451504e-002  9.000000e-001  1.334668e-009  9.999999e-001  
2.967420e-002  3.428167e-001  9.530911e-002  3.267356e-002  3.071329e-001  1.001934e+003  2.286842e-002  4.288853e-002  3.424290e-002  9.000000e-001  6.745548e-010  9.999998e-001  
3.012727e-002  3.428880e-001  9.528929e-002  3.267356e-002  3.118871e-001  1.001643e+003  2.296136e-002  4.306284e-002  3.397564e-002  9.000000e-001  9.582536e-010  9.999998e-001  
3.058035e-002  3.429580e-001  9.526985e-002  3.267356e-002  3.166423e-001  1.001357e+003  2.305251e-002  4.323379e-002  3.371353e-002  9.000000e-001  2.068919e-009  9.999998e-001  
3.103342e-002  3.430266e-001  9.525080e-002  3.267356e-002  3.213985e-001  1.001077e+003  2.314195e-002  4.340152e-002  3.345638e-002  9.000000e-001  6.609251e-010  9.999998e-001  
3.148649e-002  3.430943e-001  9.523200e-002  3.267356e-002  3.261556e-001  1.000801e+003  2.322988e-002  4.356644e-002  3.320353e-002  9.000000e-001  2.594971e-009  9.999998e-001  
3.193957e-002  3.431606e-001  9.521360e-002  3.267356e-002  3.309136e-001  1.000531e+003  2.331610e-002  4.372813e-002  3.295561e-002  9.000000e-001  3.588941e-009  9.999998e-001  
3.239264e-002  3.432253e-001  9.519566e-002  3.267356e-002  3.356726e-001  1.000267e+003  2.340061e-002  4.388663e-002  3.271259e-002  9.000000e-001  9.624735e-010  9.999998e-001  
3.284571e-002  3.432898e-001  9.517778e-002  3.267356e-002  3.404324e-001  1.000004e+003  2.348401e-002  4.404303e-002  3.247281e-002  9.000000e-001  7.130912e-009  9.999998e-001  
3.329879e-002  3.433532e-001  9.516020e-002  3.267356e-002  3.451931e-001  9.997466e+002  2.356589e-002  4.419661e-002  3.223734e-002  9.000000e-001  4.722100e-009  9.999998e-001  
3.375186e-002  3.434139e-001  9.514338e-002  3.267356e-002  3.499547e-001  9.994987e+002  2.364569e-002  4.434629e-002  3.200785e-002  9.000000e-001  9.027300e-009  9.999998e-001  
3.420493e-002  3.434750e-001  9.512645e-002  3.267356e-002  3.547171e-001  9.992504e+002  2.372482e-002  4.449465e-002  3.178039e-002  9.000000e-001  1.666226e-008  9.999998e-001  
3.452991e-002  3.435198e-001  9.511403e-002  3.267356e-002  3.581336e-001  9.990696e+002  2.378130e-002  4.460060e-002  3.161793e-002  9.000000e-001  4.807091e-010  9.999998e-001  
3.485489e-002  3.435631e-001  9.510206e-002  3.267356e-002  3.615506e-001  9.988946e+002  2.383669e-002  4.470448e-002  3.145868e-002  9.000000e-001  3.009853e-009  9.999998e-001  
3.517987e-002  3.436046e-001  9.509057e-002  3.267356e-002  3.649680e-001  9.987255e+002  2.389094e-002  4.480621e-002  3.130269e-002  9.000000e-001  6.156256e-010  9.999998e-001  
3.550485e-002  3.436436e-001  9.507977e-002  3.267356e-002  3.683858e-001  9.985652e+002  2.394359e-002  4.490501e-002  3.115122e-002  9.000000e-001  2.599456e-008  9.999998e-001  
3.582983e-002  3.436808e-001  9.506949e-002  3.267356e-002  3.718039e-001  9.984114e+002  2.399515e-002  4.500170e-002  3.100297e-002  9.000000e-001  1.754774e-008  9.999998e-001  
3.615481e-002  3.437225e-001  9.505794e-002  3.267356e-002  3.752225e-001  9.982427e+002  2.404843e-002  4.510150e-002  3.084995e-002  9.000000e-001  4.475271e-008  9.999998e-001  
3.637536e-002  3.437534e-001  9.504941e-002  3.267356e-002  3.775428e-001  9.981204e+002  2.408509e-002  4.517034e-002  3.074441e-002  9.000000e-001  8.156414e-010  9.999998e-001  
3.653730e-002  3.437735e-001  9.504385e-002  3.267356e-002  3.792465e-001  9.980391e+002  2.411090e-002  4.521876e-002  3.067018e-002  9.000000e-001  4.621510e-009  9.999998e-001  
3.669924e-002  3.437953e-001  9.503783e-002  3.267356e-002  3.809504e-001  9.979522e+002  2.413762e-002  4.526872e-002  3.059357e-002  9.000000e-001  7.572738e-008  9.999998e-001  
3.681245e-002  3.438121e-001  9.503318e-002  3.267356e-002  3.821417e-001  9.978865e+002  2.415646e-002  4.530419e-002  3.053920e-002  9.000000e-001  9.885294e-010  9.999998e-001  
3.692567e-002  3.438265e-001  9.502919e-002  3.267356e-002  3.833331e-001  9.978286e+002  2.417444e-002  4.533793e-002  3.048746e-002  9.000000e-001  1.295476e-008  9.999998e-001  
3.703889e-002  3.438392e-001  9.502568e-002  3.267356e-002  3.845245e-001  9.977764e+002  2.419174e-002  4.537036e-002  3.043774e-002  9.000000e-001  3.594754e-009  9.999998e-001  
3.715211e-002  3.438518e-001  9.502221e-002  3.267356e-002  3.857160e-001  9.977247e+002  2.420882e-002  4.540242e-002  3.038859e-002  9.000000e-001  1.718335e-008  9.999998e-001  
3.726533e-002  3.438649e-001  9.501858e-002  3.267356e-002  3.869075e-001  9.976712e+002  2.422620e-002  4.543499e-002  3.033864e-002  9.000000e-001  1.120420e-009  9.999998e-001  
3.737854e-002  3.438803e-001  9.501434e-002  3.267356e-002  3.880990e-001  9.976103e+002  2.424469e-002  4.546953e-002  3.028570e-002  9.000000e-001  6.771883e-008  9.999998e-001  
3.749176e-002  3.438964e-001  9.500988e-002  3.267356e-002  3.892907e-001  9.975472e+002  2.426296e-002  4.550393e-002  3.023295e-002  9.000000e-001  1.107503e-009  9.999998e-001  
3.760498e-002  3.439076e-001  9.500677e-002  3.267356e-002  3.904823e-001  9.975001e+002  2.427895e-002  4.553412e-002  3.018666e-002  9.000000e-001  1.157939e-007  9.999998e-001  
3.768492e-002  3.439136e-001  9.500514e-002  3.267356e-002  3.913238e-001  9.974733e+002  2.429006e-002  4.555474e-002  3.015505e-002  9.000000e-001  4.593896e-009  9.999998e-001  
3.776487e-002  3.439223e-001  9.500273e-002  3.267356e-002  3.921653e-001  9.974374e+002  2.430194e-002  4.557701e-002  3.012090e-002  9.000000e-001  9.604130e-009  9.999998e-001  
3.784481e-002  3.439293e-001  9.500079e-002  3.267356e-002  3.930068e-001  9.974075e+002  2.431227e-002  4.559680e-002  3.009056e-002  9.000000e-001  2.123371e-007  9.999998e-001  
3.789728e-002  3.439311e-001  9.500029e-002  3.267356e-002  3.935590e-001  9.973965e+002  2.431909e-002  4.560920e-002  3.007154e-002  9.000000e-001  5.341568e-009  9.999998e-001  
3.794974e-002  3.439364e-001  9.499884e-002  3.267356e-002  3.941113e-001  9.973746e+002  2.432680e-002  4.562357e-002  3.004951e-002  9.000000e-001  4.170061e-008  9.999998e-001  
3.800221e-002  3.439439e-001  9.499676e-002  3.267356e-002  3.946636e-001  9.973452e+002  2.433513e-002  4.563930e-002  3.002539e-002  9.000000e-001  1.186195e-008  9.999998e-001  
3.803934e-002  3.439484e-001  9.499551e-002  3.267356e-002  3.950545e-001  9.973270e+002  2.434093e-002  4.565011e-002  3.000883e-002  9.000000e-001  2.389487e-008  9.999998e-001  
3.807648e-002  3.439526e-001  9.499436e-002  3.267356e-002  3.954454e-001  9.973100e+002  2.434629e-002  4.566024e-002  2.999329e-002  9.000000e-001  2.152976e-008  9.999998e-001  
3.811362e-002  3.439563e-001  9.499333e-002  3.267356e-002  3.958364e-001  9.972945e+002  2.435156e-002  4.567016e-002  2.997808e-002  9.000000e-001  3.536097e-008  9.999998e-001  
3.815075e-002  3.439608e-001  9.499210e-002  3.267356e-002  3.962273e-001  9.972764e+002  2.435772e-002  4.568143e-002  2.996080e-002  9.000000e-001  1.152615e-007  9.999998e-001  
3.818789e-002  3.439671e-001  9.499035e-002  3.267356e-002  3.966183e-001  9.972525e+002  2.436395e-002  4.569322e-002  2.994274e-002  9.000000e-001  5.797507e-008  9.999998e-001  
3.822503e-002  3.439714e-001  9.498918e-002  3.267356e-002  3.970092e-001  9.972356e+002  2.436837e-002  4.570210e-002  2.992912e-002  9.000000e-001  2.586758e-007  9.999998e-001  
3.825202e-002  3.439713e-001  9.498920e-002  3.267356e-002  3.972934e-001  9.972332e+002  2.437192e-002  4.570829e-002  2.991963e-002  9.000000e-001  4.248800e-009  9.999998e-001  
3.827902e-002  3.439736e-001  9.498856e-002  3.267356e-002  3.975776e-001  9.972230e+002  2.437583e-002  4.571550e-002  2.990856e-002  9.000000e-001  5.555141e-008  9.999998e-001  
3.829857e-002  3.439765e-001  9.498775e-002  3.267356e-002  3.977834e-001  9.972119e+002  2.437865e-002  4.572099e-002  2.990016e-002  9.000000e-001  5.223592e-008  9.999998e-001  
3.831812e-002  3.439786e-001  9.498716e-002  3.267356e-002  3.979893e-001  9.972030e+002  2.438193e-002  4.572692e-002  2.989105e-002  9.000000e-001  6.770538e-008  9.999998e-001  
3.833768e-002  3.439812e-001  9.498645e-002  3.267356e-002  3.981951e-001  9.971930e+002  2.438455e-002  4.573207e-002  2.988317e-002  9.000000e-001  5.282503e-008  9.999998e-001  
3.835723e-002  3.439825e-001  9.498611e-002  3.267356e-002  3.984010e-001  9.971877e+002  2.438581e-002  4.573507e-002  2.987856e-002  9.000000e-001  3.987717e-007  9.999998e-001  
3.837678e-002  3.439810e-001  9.498651e-002  3.267356e-002  3.986068e-001  9.971900e+002  2.438898e-002  4.574005e-002  2.987094e-002  9.000000e-001  1.237158e-007  9.999998e-001  
3.839633e-002  3.439846e-001  9.498553e-002  3.267356e-002  3.988127e-001  9.971758e+002  2.439451e-002  4.574932e-002  2.985672e-002  9.000000e-001  7.021578e-007  9.999998e-001  
3.840932e-002  3.439917e-001  9.498356e-002  3.267356e-002  3.989494e-001  9.971522e+002  2.439639e-002  4.575416e-002  2.984930e-002  9.000000e-001  4.772591e-009  9.999998e-001  
3.842231e-002  3.439940e-001  9.498293e-002  3.267356e-002  3.990861e-001  9.971436e+002  2.439862e-002  4.575836e-002  2.984286e-002  9.000000e-001  7.915402e-009  9.999998e-001  
3.843119e-002  3.439947e-001  9.498272e-002  3.267356e-002  3.991796e-001  9.971403e+002  2.439988e-002  4.576069e-002  2.983929e-002  9.000000e-001  9.744872e-009  9.999998e-001  
3.843718e-002  3.439955e-001  9.498251e-002  3.267356e-002  3.992427e-001  9.971374e+002  2.440072e-002  4.576231e-002  2.983680e-002  9.000000e-001  1.115384e-008  9.999998e-001  
3.844144e-002  3.439959e-001  9.498240e-002  3.267356e-002  3.992875e-001  9.971356e+002  2.440141e-002  4.576355e-002  2.983490e-002  9.000000e-001  1.228401e-008  9.999998e-001  
3.844459e-002  3.439964e-001  9.498227e-002  3.267356e-002  3.993207e-001  9.971338e+002  2.440182e-002  4.576438e-002  2.983362e-002  9.000000e-001  1.280073e-008  9.999998e-001  
3.844774e-002  3.439966e-001  9.498219e-002  3.267356e-002  3.993538e-001  9.971326e+002  2.440233e-002  4.576529e-002  2.983223e-002  9.000000e-001  7.134183e-009  9.999998e-001  
