x             rho           u             mdot          tau           T             O2            NO            NO2           N2            O             sumfracs      
1.821243e-09  3.267356e-01  1.000000e-01  3.267356e-02  1.821243e-08  1.073150e+03  6.975822e-09  1.308500e-08  9.999998e-02  9.000000e-01  1.163209e-12  1.000000e+00  
6.858845e-09  3.267356e-01  9.999999e-02  3.267356e-02  6.858846e-08  1.073150e+03  2.627243e-08  4.927961e-08  9.999992e-02  9.000000e-01  3.696540e-12  1.000000e+00  
3.047765e-08  3.267357e-01  9.999996e-02  3.267356e-02  3.047766e-07  1.073149e+03  1.167571e-07  2.189890e-07  9.999966e-02  9.000000e-01  8.937808e-12  1.000000e+00  
9.978612e-08  3.267359e-01  9.999989e-02  3.267356e-02  9.978620e-07  1.073148e+03  3.822984e-07  7.170051e-07  9.999890e-02  9.000000e-01  1.219933e-11  1.000000e+00  
2.912707e-07  3.267364e-01  9.999973e-02  3.267356e-02  2.912713e-06  1.073146e+03  1.115900e-06  2.092840e-06  9.999679e-02  9.000000e-01  1.299850e-11  1.000000e+00  
7.463149e-07  3.267377e-01  9.999936e-02  3.267356e-02  7.463184e-06  1.073140e+03  2.858959e-06  5.361864e-06  9.999178e-02  9.000000e-01  1.307117e-11  1.000000e+00  
1.723189e-06  3.267402e-01  9.999858e-02  3.267356e-02  1.723207e-05  1.073128e+03  6.599646e-06  1.237734e-05  9.998102e-02  9.000000e-01  1.306964e-11  1.000000e+00  
3.616662e-06  3.267450e-01  9.999710e-02  3.267356e-02  3.616734e-05  1.073105e+03  1.384550e-05  2.596660e-05  9.996019e-02  9.000000e-01  1.306119e-11  1.000000e+00  
6.923678e-06  3.267533e-01  9.999456e-02  3.267356e-02  6.923930e-05  1.073066e+03  2.648637e-05  4.967394e-05  9.992384e-02  9.000000e-01  1.304656e-11  1.000000e+00  
1.207069e-05  3.267661e-01  9.999066e-02  3.267356e-02  1.207143e-04  1.073005e+03  4.612614e-05  8.650736e-05  9.986737e-02  9.000000e-01  1.302401e-11  1.000000e+00  
1.721771e-05  3.267787e-01  9.998679e-02  3.267356e-02  1.721912e-04  1.072944e+03  6.573168e-05  1.232766e-04  9.981099e-02  9.000000e-01  1.300167e-11  1.000000e+00  
2.236473e-05  3.267913e-01  9.998295e-02  3.267356e-02  2.236702e-04  1.072884e+03  8.530314e-05  1.599819e-04  9.975471e-02  9.000000e-01  1.297950e-11  1.000000e+00  
3.606362e-05  3.268245e-01  9.997280e-02  3.267356e-02  3.606917e-04  1.072724e+03  1.372331e-04  2.573741e-04  9.960539e-02  9.000000e-01  1.292101e-11  1.000000e+00  
4.976250e-05  3.268572e-01  9.996277e-02  3.267356e-02  4.977255e-04  1.072566e+03  1.889514e-04  3.543691e-04  9.945668e-02  9.000000e-01  1.286327e-11  1.000000e+00  
6.346139e-05  3.268895e-01  9.995289e-02  3.267356e-02  6.347724e-04  1.072410e+03  2.404423e-04  4.509378e-04  9.930862e-02  9.000000e-01  1.280648e-11  1.000000e+00  
8.874288e-05  3.269479e-01  9.993505e-02  3.267356e-02  8.877290e-04  1.072126e+03  3.348625e-04  6.280184e-04  9.903712e-02  9.000000e-01  1.270405e-11  1.000000e+00  
1.508886e-04  3.270853e-01  9.989308e-02  3.267356e-02  1.509719e-03  1.071452e+03  5.637071e-04  1.057205e-03  9.837909e-02  9.000000e-01  1.246397e-11  1.000000e+00  
1.840595e-04  3.271567e-01  9.987128e-02  3.267356e-02  1.841819e-03  1.071101e+03  6.839806e-04  1.282772e-03  9.803325e-02  9.000000e-01  1.234059e-11  1.000000e+00  
2.172303e-04  3.272268e-01  9.984987e-02  3.267356e-02  2.173990e-03  1.070756e+03  8.029877e-04  1.505964e-03  9.769105e-02  9.000000e-01  1.222029e-11  1.000000e+00  
2.504012e-04  3.272956e-01  9.982888e-02  3.267356e-02  2.506231e-03  1.070416e+03  9.207547e-04  1.726831e-03  9.735241e-02  9.000000e-01  1.210311e-11  1.000000e+00  
3.154750e-04  3.274268e-01  9.978889e-02  3.267356e-02  3.158214e-03  1.069765e+03  1.148310e-03  2.153601e-03  9.669809e-02  9.000000e-01  1.188188e-11  1.000000e+00  
4.142777e-04  3.276170e-01  9.973096e-02  3.267356e-02  4.148613e-03  1.068816e+03  1.485357e-03  2.785716e-03  9.572893e-02  9.000000e-01  1.156624e-11  1.000000e+00  
5.130804e-04  3.277970e-01  9.967619e-02  3.267356e-02  5.139570e-03  1.067911e+03  1.812635e-03  3.399509e-03  9.478786e-02  9.000000e-01  1.127284e-11  1.000000e+00  
6.118830e-04  3.279676e-01  9.962435e-02  3.267356e-02  6.131058e-03  1.067047e+03  2.130657e-03  3.995944e-03  9.387340e-02  9.000000e-01  1.099955e-11  1.000000e+00  
7.952067e-04  3.282614e-01  9.953517e-02  3.267356e-02  7.972023e-03  1.065542e+03  2.697929e-03  5.059836e-03  9.224223e-02  9.000000e-01  1.053928e-11  1.000000e+00  
9.785303e-04  3.285283e-01  9.945431e-02  3.267356e-02  9.814570e-03  1.064155e+03  3.237624e-03  6.072007e-03  9.069037e-02  9.000000e-01  1.013181e-11  1.000000e+00  
1.161854e-03  3.287711e-01  9.938087e-02  3.267356e-02  1.165856e-02  1.062872e+03  3.752194e-03  7.037057e-03  8.921075e-02  9.000000e-01  9.769370e-12  1.000000e+00  
1.345178e-03  3.289922e-01  9.931408e-02  3.267356e-02  1.350385e-02  1.061684e+03  4.243872e-03  7.959176e-03  8.779695e-02  9.000000e-01  9.445598e-12  1.000000e+00  
1.528501e-03  3.291936e-01  9.925330e-02  3.267356e-02  1.535032e-02  1.060581e+03  4.714583e-03  8.841972e-03  8.644345e-02  9.000000e-01  9.155015e-12  1.000000e+00  
1.711825e-03  3.293771e-01  9.919803e-02  3.267356e-02  1.719787e-02  1.059557e+03  5.165985e-03  9.688555e-03  8.514546e-02  9.000000e-01  8.893290e-12  1.000000e+00  
1.895148e-03  3.295439e-01  9.914780e-02  3.267356e-02  1.904641e-02  1.058604e+03  5.599536e-03  1.050166e-02  8.389880e-02  9.000000e-01  8.657143e-12  1.000000e+00  
2.078472e-03  3.296954e-01  9.910225e-02  3.267356e-02  2.089584e-02  1.057718e+03  6.016532e-03  1.128371e-02  8.269975e-02  9.000000e-01  8.443700e-12  1.000000e+00  
2.370873e-03  3.299080e-01  9.903839e-02  3.267356e-02  2.384732e-02  1.056430e+03  6.650198e-03  1.247212e-02  8.087768e-02  9.000000e-01  8.143953e-12  1.000000e+00  
2.663275e-03  3.300883e-01  9.898430e-02  3.267356e-02  2.680056e-02  1.055281e+03  7.248812e-03  1.359480e-02  7.915639e-02  9.000000e-01  7.886797e-12  1.000000e+00  
2.955676e-03  3.302396e-01  9.893893e-02  3.267356e-02  2.975528e-02  1.054256e+03  7.815927e-03  1.465839e-02  7.752568e-02  9.000000e-01  7.665909e-12  1.000000e+00  
3.248078e-03  3.303649e-01  9.890142e-02  3.267356e-02  3.271123e-02  1.053343e+03  8.354549e-03  1.566855e-02  7.597690e-02  9.000000e-01  7.476267e-12  1.000000e+00  
3.740193e-03  3.305237e-01  9.885391e-02  3.267356e-02  3.768831e-02  1.052029e+03  9.203865e-03  1.726140e-02  7.353473e-02  9.000000e-01  7.214829e-12  1.000000e+00  
4.232308e-03  3.306255e-01  9.882346e-02  3.267356e-02  4.266733e-02  1.050958e+03  9.990120e-03  1.873599e-02  7.127389e-02  9.000000e-01  7.012689e-12  1.000000e+00  
4.724423e-03  3.306785e-01  9.880761e-02  3.267356e-02  4.764751e-02  1.050096e+03  1.072155e-02  2.010775e-02  6.917069e-02  9.000000e-01  6.860226e-12  1.000000e+00  
5.216537e-03  3.306898e-01  9.880425e-02  3.267356e-02  5.262818e-02  1.049413e+03  1.140498e-02  2.138950e-02  6.720552e-02  9.000000e-01  6.749050e-12  1.000000e+00  
5.708652e-03  3.306652e-01  9.881160e-02  3.267356e-02  5.760874e-02  1.048885e+03  1.204611e-02  2.259189e-02  6.536200e-02  9.000000e-01  6.668881e-12  1.000000e+00  
6.200767e-03  3.306098e-01  9.882814e-02  3.267356e-02  6.258869e-02  1.048490e+03  1.264964e-02  2.372379e-02  6.362658e-02  9.000000e-01  6.612613e-12  1.000000e+00  
6.943613e-03  3.304774e-01  9.886774e-02  3.267356e-02  7.010382e-02  1.048110e+03  1.349810e-02  2.531504e-02  6.118686e-02  9.000000e-01  6.577631e-12  1.000000e+00  
7.686460e-03  3.302969e-01  9.892179e-02  3.267356e-02  7.761537e-02  1.047944e+03  1.428078e-02  2.678291e-02  5.893630e-02  9.000000e-01  6.600679e-12  1.000000e+00  
8.429306e-03  3.300782e-01  9.898733e-02  3.267356e-02  8.512236e-02  1.047955e+03  1.500632e-02  2.814364e-02  5.685004e-02  9.000000e-01  6.648496e-12  1.000000e+00  
9.172152e-03  3.298300e-01  9.906182e-02  3.267356e-02  9.262403e-02  1.048107e+03  1.568189e-02  2.941063e-02  5.490748e-02  9.000000e-01  6.681900e-12  1.000000e+00  
9.914998e-03  3.295594e-01  9.914315e-02  3.267356e-02  1.001198e-01  1.048373e+03  1.631342e-02  3.059503e-02  5.309155e-02  9.000000e-01  6.733964e-12  1.000000e+00  
1.065784e-02  3.292722e-01  9.922963e-02  3.267356e-02  1.076092e-01  1.048730e+03  1.690575e-02  3.170591e-02  5.138835e-02  9.000000e-01  6.912563e-12  1.000000e+00  
1.185844e-02  3.287846e-01  9.937679e-02  3.267356e-02  1.196995e-01  1.049452e+03  1.779028e-02  3.336481e-02  4.884490e-02  9.000000e-01  7.341856e-12  1.000000e+00  
1.305904e-02  3.282811e-01  9.952919e-02  3.267356e-02  1.317715e-01  1.050302e+03  1.859646e-02  3.487675e-02  4.652679e-02  9.000000e-01  7.578516e-12  1.000000e+00  
1.425964e-02  3.277728e-01  9.968356e-02  3.267356e-02  1.438249e-01  1.051236e+03  1.933457e-02  3.626105e-02  4.440438e-02  9.000000e-01  7.409883e-12  1.000000e+00  
1.546024e-02  3.272681e-01  9.983729e-02  3.267356e-02  1.558597e-01  1.052218e+03  2.001326e-02  3.753390e-02  4.245284e-02  9.000000e-01  7.330149e-12  1.000000e+00  
1.666084e-02  3.267739e-01  9.998827e-02  3.267356e-02  1.678761e-01  1.053219e+03  2.064002e-02  3.870935e-02  4.065064e-02  9.000000e-01  8.446962e-12  1.000000e+00  
1.786144e-02  3.262949e-01  1.001350e-01  3.267356e-02  1.798746e-01  1.054217e+03  2.122093e-02  3.979882e-02  3.898025e-02  9.000000e-01  1.096681e-11  1.000000e+00  
1.906204e-02  3.258336e-01  1.002768e-01  3.267356e-02  1.918559e-01  1.055200e+03  2.176071e-02  4.081115e-02  3.742814e-02  9.000000e-01  1.222513e-11  1.000000e+00  
2.081928e-02  3.251937e-01  1.004741e-01  3.267356e-02  2.093623e-01  1.056593e+03  2.248491e-02  4.216935e-02  3.534574e-02  9.000000e-01  5.401096e-12  1.000000e+00  
2.257651e-02  3.245976e-01  1.006587e-01  3.267356e-02  2.268355e-01  1.057915e+03  2.314020e-02  4.339832e-02  3.346148e-02  9.000000e-01  6.913420e-12  1.000000e+00  
2.433375e-02  3.240454e-01  1.008302e-01  3.267356e-02  2.442778e-01  1.059155e+03  2.373516e-02  4.451414e-02  3.175070e-02  9.000000e-01  3.866592e-12  1.000000e+00  
2.609099e-02  3.235367e-01  1.009887e-01  3.267356e-02  2.616916e-01  1.060308e+03  2.427737e-02  4.553104e-02  3.019159e-02  9.000000e-01  3.936989e-11  1.000000e+00  
2.784823e-02  3.230706e-01  1.011344e-01  3.267356e-02  2.790792e-01  1.061368e+03  2.477362e-02  4.646172e-02  2.876467e-02  9.000000e-01  1.113933e-10  1.000000e+00  
2.960547e-02  3.226448e-01  1.012679e-01  3.267356e-02  2.964429e-01  1.062337e+03  2.522941e-02  4.731655e-02  2.745404e-02  9.000000e-01  1.228727e-10  1.000000e+00  
3.136270e-02  3.222560e-01  1.013900e-01  3.267356e-02  3.137846e-01  1.063222e+03  2.564896e-02  4.810338e-02  2.624766e-02  9.000000e-01  6.577369e-11  1.000000e+00  
3.428852e-02  3.216825e-01  1.015708e-01  3.267356e-02  3.426153e-01  1.064522e+03  2.627711e-02  4.928144e-02  2.444145e-02  9.000000e-01  7.755459e-10  1.000000e+00  
3.630436e-02  3.213347e-01  1.016807e-01  3.267356e-02  3.624510e-01  1.065306e+03  2.666495e-02  5.000882e-02  2.332623e-02  9.000000e-01  9.609418e-10  1.000000e+00  
3.832020e-02  3.210216e-01  1.017799e-01  3.267356e-02  3.822664e-01  1.066008e+03  2.702103e-02  5.067664e-02  2.230232e-02  9.000000e-01  3.325149e-10  1.000000e+00  
4.033604e-02  3.207394e-01  1.018695e-01  3.267356e-02  4.020634e-01  1.066635e+03  2.734870e-02  5.129117e-02  2.136013e-02  9.000000e-01  3.796588e-09  1.000000e+00  
4.235188e-02  3.204841e-01  1.019506e-01  3.267356e-02  4.218439e-01  1.067198e+03  2.765033e-02  5.185687e-02  2.049279e-02  9.000000e-01  7.728146e-09  1.000000e+00  
4.436772e-02  3.202527e-01  1.020243e-01  3.267356e-02  4.416093e-01  1.067706e+03  2.792858e-02  5.237871e-02  1.969270e-02  9.000000e-01  6.475043e-09  1.000000e+00  
4.638356e-02  3.200448e-01  1.020906e-01  3.267356e-02  4.613612e-01  1.068153e+03  2.818805e-02  5.286530e-02  1.894666e-02  9.000000e-01  7.777469e-09  1.000000e+00  
4.839940e-02  3.198620e-01  1.021489e-01  3.267356e-02  4.811011e-01  1.068529e+03  2.843525e-02  5.332887e-02  1.823592e-02  9.000000e-01  3.693510e-08  1.000000e+00  
4.958490e-02  3.197623e-01  1.021808e-01  3.267356e-02  4.927049e-01  1.068732e+03  2.857262e-02  5.358657e-02  1.784081e-02  9.000000e-01  1.190180e-11  1.000000e+00  
5.035739e-02  3.196981e-01  1.022013e-01  3.267356e-02  5.002642e-01  1.068866e+03  2.865736e-02  5.374549e-02  1.759715e-02  9.000000e-01  2.852802e-11  1.000000e+00  
